GM
0.0458908
0.0453186
0.0426102
0.0398636
0.0409698
0.0410843
0.0440216
0.0456238
0.0452805
0.0457382
0.0455475
0.0458527
0.04776
0.0483322
0.0439835
0.0378418
0.0405121
0.0422287
0.0407028
0.0458908
0.0467682
0.0444412
0.0436783
0.0421143
0.0403976
0.0416565
0.0452423
0.0439072
0.0466156
0.0451279
0.0440598
0.0437164
0.0457764
0.0475311
0.0429916
0.0389481
0.0424576
0.0441742
0.0432587
0.0465012
0.0451279
0.0429916
0.0402069
0.0417328
0.039444
0.041275
0.0435638
0.0465012
0.0471115
0.0465775
0.0438309
0.0456619
0.0481415
0.046196
0.0429153
0.0401306
0.0432587
0.040741
0.0444031
0.0468445
0.0471878
0.0445938
0.0403214
0.0408936
0.0418472
0.043335
0.0442123
0.0442886
0.0449753
0.043869
0.043602
0.0444412
0.0469589
0.0446701
0.0413132
0.0395584
0.0426483
0.0425339
0.0429535
0.0466156
0.0461197
0.0435257
0.0395203
0.0413895
0.0399017
0.044136
0.0455093
0.0450897
0.0456619
0.0445175
0.0443268
0.0466919
0.0459671
0.0479126
0.0443268
0.0401688
0.0428009
0.0427628
0.0450516
0.0449371
0.0462723
0.0434494
0.040741
0.0409698
0.0398636
0.0400925
0.043335
0.0449371
0.0469971
0.0453568
0.0443649
0.0460434
0.0488663
0.0472641
0.0418854
0.0394058
0.0430298
0.0440979
0.0440979
0.0476456
0.0462723
0.0439072
0.0413513
0.0406647
0.0405121
0.0435638
0.0450134
0.0443649
0.0444031
0.0455475
0.0434113
0.0445938
0.0468826
0.0469208
0.0435257
0.039444
0.0404739
0.0439835
0.0445175
0.0463867
0.0453949
0.0435638
0.0404739
0.0405502
0.0419998
0.0430679
0.0452423
0.0442886
0.0463486
0.0437546
0.0437546
0.0457382
0.0479507
0.0471878
0.0413895
0.0399399
0.041275
0.0450516
0.0455475
0.0449371
0.0461578
0.0443649
0.041008
0.0417709
0.040741
0.0423431
0.0435257
0.0465393
0.0457764
0.0435257
0.0433731
0.0473404
0.0482941
0.0454712
0.0400925
0.0391388
0.0424576
0.0436401
0.0446701
0.0477219
0.0469971
0.043335
0.0395584
0.0402069
0.0396347
0.0413132
0.0455093
0.0440216
0.0475311
0.0455093
0.044632
0.0455475
0.0473404
0.0452805
0.0420761
0.0424576
0.0436401
0.0437164
0.0458145
0.0477219
0.0450897
0.044136
0.0419998
0.0423431
0.0397873
0.044632
0.0455856
0.0421143
0.0434494
0.0424194
0.0430298
0.0426483
0.0456238
0.0476456
0.0419617
0.0389862
0.0434113
0.045166
0.0451279
0.0453568
0.0450516
0.0435257
0.042305
0.041275
0.0421524
0.042038
0.0458908
0.0460815
0.0460052
0.0443649
0.0456238
0.046463
0.0465775
0.043602
0.0411224
0.0394821
0.0415802
0.0452423
0.0450134
0.0470734
0.0474548
0.0435638
0.0405884
0.0427628
0.0398636
0.0435638
0.0430298
0.0444031
0.0453568
0.0420761
0.0452805
0.0455475
0.0464249
0.0465775
0.0424194
0.0408936
0.0409317
0.0428009
0.0462341
0.0474548
0.044136
0.0436401
0.042305
0.0407028
0.0406265
0.0437927
0.0447464
0.0450516
0.04673
0.0415802
0.0424957
0.046196
0.0479126
0.0447083
0.042572
0.0395203
0.0439835
0.0448608
0.0457764
0.0453568
0.0465012
0.0436783
0.0403214
0.0419998
0.039978
0.0435257
0.0436783
0.0435638
0.044632
0.0437164
0.0440598
0.0479889
0.0489426
0.0470352
0.0398636
0.0421143
0.042305
0.0419998
0.0444031
0.0455475
0.0463104
0.0435257
0.043602
0.0415802
0.0417328
0.0414276
0.043335
0.043335
0.0457001
0.044899
0.0424576
0.044899
0.0494003
0.0493622
0.0418091
0.0413895
0.0427628
0.0465393
0.0455093
0.0458527
0.0464249
0.0434494
0.043869
0.0414658
0.0404358
0.0410461
0.0423431
0.043602
0.0433731
0.0442886
0.0457382
0.0452805
0.0452805
0.0452805
0.0418091
0.0396347
0.0433731
0.0435638
0.0455093
0.046463
0.04776
0.0458908
0.0418854
0.0404358
0.0395966
0.0423813
0.0435257
0.0463867
0.0471115
0.0437164
0.045433
0.0459671
0.0474548
0.0465393
0.0397873
0.0401306
0.0431061
0.0445938
0.0442123
0.0456238
0.046463
0.0416946
0.0443649
0.0424576
0.0416565
0.0429916
0.0454712
0.0456238
0.0457382
0.043335
0.0453949
0.0456238
0.0468063
0.0466156
0.0391769
0.0403976
0.0423431
0.0449753
0.0430679
0.0464249
0.0450516
0.0422668
0.0393677
0.0401688
0.0391388
0.0418472
0.0456238
0.0454712
0.0460434
0.0438309
0.0476074
0.0470352
0.0484085
0.0465012
0.0419998
0.0424194
0.0428772
0.0433731
0.0449371
0.0451279
0.0450516
0.0426865
0.0409698
0.0423813
0.0392532
0.0432968
0.0444794
0.0432968
0.0431442
0.0441742
0.0436783
0.0444412
0.0461578
0.0466919
0.0395203
0.0401688
0.0433731
0.0433731
0.0463104
0.04673
0.046463
0.0419617
0.0422668
0.0438309
0.0423431
0.043602
0.0460434
0.0452042
0.0483322
0.0445175
0.044632
0.0457001
0.0476074
0.0445938
0.0409698
0.0408936
0.0419235
0.0430298
0.0447083
0.0455093
0.0447464
0.0394821
0.0395203
0.0398254
0.0396729
0.043335
0.0457001
0.0448227
0.0458908
0.0442505
0.0453949
0.0470352
0.0477982
0.0462341
0.0387955
0.0391006
0.0426483
0.0426865
0.0454712
0.0479889
0.04673
0.0400543
0.0416946
0.0436401
0.042572
0.0430679
0.045166
0.0463104
0.0460052
0.0447845
0.0443649
0.0471497
0.047226
0.044632
0.0399399
0.0382233
0.0418091
0.0428391
0.0452805
0.04776
0.0447845
0.0423813
0.0410461
0.0416946
0.0401688
0.0448608
0.0457764
0.0465775
0.046196
0.045166
0.0444794
0.0465775
0.0481415
0.0424957
0.0382233
0.0401688
0.0423813
0.0439835
0.0465393
0.0477982
0.0433731
0.0394058
0.0395203
0.0395203
0.0390244
0.044136
0.0462723
0.0452423
0.0458527
0.0477982
0.0456619
0.0468826
0.0491333
0.044899
0.0409698
0.041008
0.043335
0.0450134
0.0467682
0.0457382
0.0449371
0.0432968
0.0429153
0.0428391
0.0407791
0.0424194
0.0431442
0.045433
0.0443649
0.0452805
0.0449753
0.0465012
0.0479889
0.0459671
0.0387955
0.0395203
0.0423431
0.0444031
0.0446701
0.0466537
0.0449371
0.0420761
0.041008
0.0409698
0.0402832
0.044632
0.0436401
0.0435638
0.0455856
0.0434494
0.0429153
0.0478363
0.0481033
0.0431442
0.0392151
0.0402832
0.0427628
0.0440979
0.0458145
0.0462723
0.0442123
0.0435638
0.0426483
0.0405121
0.0407028
0.0432968
0.0441742
0.04673
0.0474548
0.0456619
0.0461578
0.0465393
0.047493
0.0457382
0.0388718
0.0394821
0.0440216
0.0424576
0.0434494
0.0464249
0.0458527
0.041008
0.0410461
0.0412369
0.0403595
0.0465775
0.0453568
0.0470352
0.0452042
0.042038
0.0442123
0.0463867
0.0478363
0.0447083
0.0378418
0.039711
0.044632
0.0439072
0.044899
0.0442505
0.0444031
0.0424957
0.0436401
0.0428009
0.0411606
0.0433731
0.0453949
0.0477982
0.0449371
0.0441742
0.0443649
0.0465393
0.0482941
0.0443649
0.039978
0.0407791
0.0412369
0.0437164
0.044136
0.0465012
0.0439072
0.0442505
0.040741
0.0399399
0.0429535
0.0432587
0.0455093
0.0455475
0.0459671
0.0447464
0.0437927
0.0458145
0.0486755
0.044632
0.0398636
0.0399017
0.0437546
0.0466919
0.0455093
0.0481033
0.0440979
0.0414658
0.0406265
0.0403976
0.0404739
0.0444794
0.0435638
0.0470352
0.0473404
0.0455093
0.0439453
0.0450516
0.0472641
0.0437164
0.0400162
0.0423431
0.0439453
0.042572
0.0445938
0.0458145
0.0432205
0.0405121
0.0405884
0.0412369
0.0419998
0.0434113
0.0444412
0.0427628
0.0452423
0.0442123
0.0457001
0.0470734
0.0470352
0.0435257
0.0395966
0.0435638
0.0437546
0.0438309
0.0467682
0.0453949
0.0433731
0.0431061
0.0412369
0.0417328
0.042038
0.0473404
0.0439453
0.0451279
0.0457764
0.0437546
0.0455856
0.0471878
0.0467682
0.0450897
0.0384521
0.0408936
0.041275
0.0435638
0.0452042
0.0435257
0.0428391
0.0413513
0.0418472
0.0405502
0.0418091
0.0429153
0.0432205
0.0452805
0.0445557
0.0438309
0.0432205
0.047226
0.047493
0.0439835
0.0392151
0.0417328
0.0429153
0.0445557
0.0455475
0.0472641
0.0454712
0.0422668
0.0436401
0.0434875
0.0405884
0.0443268
0.0457001
0.0457001
0.0449371
0.0426102
0.044136
0.0458145
0.0488281
0.0437546
0.0403214
0.0425339
0.0437546
0.044632
0.0446701
0.0451279
0.0434113
0.0421906
0.0394821
0.0406265
0.0394058
0.0426865
0.0424957
0.0447845
0.0458145
0.0442886
0.0452042
0.048027
0.0483322
0.0445175
0.0399399
0.0405121
0.0469208
0.0489807
0.0489044
0.0451279
0.0421906
0.0477982
0.0419235
0.0476456
0.0386047
0.0242996
0.028038
0.0389099
0.0421143
0.043602
0.0497437
0.0530243
0.0545502
0.0553513
0.0782394
0.0833511
0.0719452
0.0682831
0.0753784
0.0462341
-0.108414
-0.0718307
3.81E-05
0.00347137
0.0336456
0.0603104
0.0642395
0.0882721
0.105667
0.165749
0.114594
0.0416946
0.0644684
0.0796509
0.0423813
-0.0629044
-0.0234222
-0.0153351
-0.0120544
-0.0471878
0.0670242
0.0676346
0.07267
0.0458908
0.00495911
0.0165939
0.092659
0.147552
0.169983
0.162163
0.0651169
0.00423431
-0.10498
-0.0919724
-0.0388336
-0.0169373
0.0469971
0.109558
0.134315
0.116653
0.159912
0.146065
0.123482
0.164986
0.0432587
-0.149193
-0.163116
-0.0334549
-0.117035
-0.0717926
-0.0291061
0.0186157
0.116615
0.171356
0.22419
0.239563
0.205002
0.105362
-0.0504303
-0.0551224
-0.224609
-0.121613
-0.0127411
0.0723267
0.183105
0.194778
0.159492
0.110397
0.0285339
0.0402069
-0.0127029
0.00106812
0.0328827
-0.0120926
0.0233841
-0.093956
0.038414
0.0647354
0.0671387
0.0772095
0.0284195
0.0810242
0.166588
0.223846
0.265388
0.190048
0.0356674
-0.127869
0.0604248
-0.0325394
-0.212555
-0.378532
-0.249023
-0.10807
-0.103226
0.0531006
0.100098
0.1511
0.168839
0.169411
0.18322
0.176735
0.150528
0.168533
0.129395
0.134201
0.149345
0.156746
0.154533
0.148697
0.102043
0.0526428
0.0539017
-0.0457382
-0.0258255
-0.0691986
-0.0690842
-0.0505066
-0.0559998
-0.106621
-0.100517
-0.0858307
-0.0807571
-0.00896454
0.0233078
0.0468826
0.0702667
0.090332
0.127754
0.110321
0.137024
0.204659
0.205803
0.171051
0.153275
-0.0516891
-0.232887
-0.0031662
0.152969
-0.0212097
-0.0427628
-0.138206
-0.0559235
0.0812149
-0.0514984
-0.00331879
0.060463
0.0980377
0.130501
0.140877
0.165253
0.116653
0.137215
0.155525
0.0776672
0.0739288
0.0927353
0.0798416
0.106926
0.0870895
0.0691605
0.0137329
-0.0709534
-0.0656128
0.0294495
-0.0498962
-0.17086
-0.208282
-0.0419235
0.0642776
0.128708
0.14328
0.13073
0.136528
0.0246048
0.0914001
0.233345
0.129433
-0.131226
-0.0094223
-0.0688171
-0.167313
-0.0312424
0.118599
-0.00038147
-0.0780487
0.07164
0.129051
0.125237
0.128555
0.139999
0.13649
0.12516
0.110435
0.0841522
0.0735855
0.0923157
0.202599
0.32299
0.236588
0.0871658
0.0902557
-0.03685
-0.25177
-0.353622
-0.528564
-0.444527
-0.114632
0.000915527
0.0661087
0.122757
0.161972
0.18795
0.19001
0.183601
0.183792
0.179329
0.170975
0.157166
0.138588
0.15049
0.171585
0.1548
0.120926
0.0151062
-0.121078
-0.141258
0.00740051
0.030899
0.01194
-0.00377655
-0.0481033
0.00644684
0.00396729
0.0128555
0.0236893
0.0324631
0.0352478
0.0375748
0.0339508
0.0453186
0.164566
0.311279
0.41851
0.15358
-0.131798
-0.319214
-0.336189
-0.294876
-0.153809
-0.0645065
-0.000419617
0.0310898
0.0587845
0.0429153
0.145073
0.212402
0.221939
0.212326
0.212936
0.192947
0.170021
0.183411
0.11219
0.130424
0.156631
0.301895
0.450401
0.379105
-0.0164032
-0.54882
-0.316582
-0.385056
-0.485878
-0.374222
-0.209846
-0.0536346
0.0436783
0.109978
0.161743
0.181313
0.19928
0.215721
0.216675
0.212059
0.195541
0.158348
0.143967
0.154915
0.235176
0.226898
0.250587
0.223465
0.0812912
-0.0522995
-0.387878
-0.377426
-0.255661
-0.269394
-0.0222397
-0.00759125
0.00137329
0.0427246
0.130959
0.144958
0.146141
0.111427
0.113411
0.13134
0.12928
0.125656
0.0881958
-0.0439453
0.0486755
0.132523
0.0279236
-0.0377655
0.0646591
0.234756
0.268669
0.116463
-0.28038
-0.263748
-0.0148773
0.118294
-0.0437927
-0.253677
-0.0429153
-0.0156784
0.0463486
0.117302
0.123482
0.14637
0.159988
0.165863
0.170975
0.145149
0.102615
0.145836
0.131989
0.111885
-0.0899124
-0.105896
0.00358582
0.0521469
0.00671387
-0.0587082
-0.00225067
0.0605392
0.0497437
0.0453949
0.0339508
0.0521088
0.0569153
0.0415039
0.0437546
0.0378799
0.0523376
0.0968552
0.142021
0.0502396
0.0164413
0.0728226
-0.0953293
-0.0254059
0.0216293
-0.0423431
0.0213623
0.0571823
0.119209
0.158615
0.172195
-0.00991821
-0.0125504
-0.0432968
0.0563812
0.146408
0.265274
-0.0258255
-0.0722122
-0.0635529
-0.193634
-0.139923
-0.200577
-0.0618362
0.0112915
0.0901413
0.147095
0.18383
0.198288
0.20256
0.203323
0.188408
0.177689
0.193443
0.24334
0.260735
0.133362
-0.178032
-0.280647
-0.00911713
0.0261688
0.0327682
0.0451279
0.0371933
-0.0260544
0.0381851
0.099678
0.102005
-0.0386429
-0.189171
-0.168648
-0.0529861
0.000343323
0.0195313
0.0482559
0.0900269
0.0939941
0.0614548
0.110245
0.129471
0.0652313
0.0482941
0.137253
0.0681686
0.0244141
0.0623703
0.187645
0.182571
0.0737381
-0.0812149
0.0276184
-0.112305
-0.100899
-0.0537872
-0.00854492
0.0680542
0.0187683
0.0997543
-0.0354004
-0.0452805
0.0641632
0.110474
0.137939
0.132561
0.140114
0.173264
0.179596
0.149574
0.0469208
0.00694275
-0.00247955
-0.0247574
0.051384
0.0934601
-0.0173569
0.0115967
0.143356
0.33493
0.171356
-0.278053
-0.561371
-0.325356
-0.0466919
0.0262451
0.083313
0.118141
0.137177
0.14122
0.152779
0.161629
0.153809
0.142708
0.114441
0.157509
0.150452
0.146942
0.132675
-0.0432968
-0.0939178
0.0777054
0.155258
0.0165176
-0.27298
-0.0350571
-0.0538254
-0.127945
0.0601578
0.061264
-0.0399017
-0.00701904
0.0422287
0.0575256
0.102959
0.146179
0.189095
0.18177
0.0331497
0.0658035
0.230522
0.146751
-0.140915
0.0111389
0.195313
-0.0102615
-0.218887
-0.184288
0.0576019
0.0539017
0.124588
0.138245
0.120811
-0.0814819
-0.204163
-0.0289536
0.117149
0.112648
0.118713
0.127602
0.130539
0.143967
0.0745392
0.125999
0.174217
0.186157
0.105476
-0.10231
-0.182686
-0.0486374
-0.0106812
0.0336456
0.250702
0.152969
-0.174713
-0.479965
-0.0820923
0.240555
0.379944
0.1231
-0.157623
-0.202637
-0.355911
-0.128975
0.0144196
0.146179
0.199699
0.177193
0.193977
0.259895
0.282097
0.255966
0.280724
0.25753
0.241241
0.188904
0.0236511
0.0500488
-0.00450134
-0.120277
-0.234032
-0.360909
-0.135269
0.0908279
0.114212
0.0550079
-0.0638199
-0.268631
-0.0807953
-0.0707245
0.0192261
0.194588
0.139122
0.170898
0.0179672
0.0744629
0.184555
0.221863
0.208473
0.0669098
-0.146027
-0.1297
-0.043335
0.0579453
0.0273895
-0.0272369
0.0983047
0.200996
0.0397873
-0.017128
0.0673676
0.168724
0.192108
0.160789
0.0230408
-0.0613403
-0.122223
-0.0672913
-0.00522614
0.00164032
0.0484085
0.072937
0.079422
0.0938034
0.123329
0.156784
0.148354
0.180817
0.101929
0.0152206
-0.186958
-0.199738
-0.0187302
0.0529861
0.0834656
0.159416
0.157547
0.124588
-0.0129318
-0.0402451
-0.184021
-0.178146
0.0171661
0.064621
0.0906372
0.0581741
0.0583649
0.136681
0.0619507
0.102081
0.105171
0.0933075
0.0770187
0.125847
0.214958
0.260124
0.0638962
-0.0960159
-0.0885773
0.0390625
0.129433
0.165138
-0.0930786
-0.310631
-0.156784
-0.0886917
-0.135918
0.071106
0.104675
0.0771332
0.10807
0.113678
0.150032
0.183907
0.213585
0.159607
0.12619
0.0653458
0.0489044
-0.00198364
-0.127754
0.0715256
0.132446
0.150452
0.104179
0.128593
-0.0517273
-0.331917
-0.1931
-0.100517
-0.0883102
0.0300217
0.0626373
0.107536
0.122147
0.129166
0.139694
0.150986
0.195198
0.163345
0.16758
-0.0282669
-0.0128174
-0.0738144
0.0284958
0.0878525
0.0773621
0.0749207
0.082016
0.00389099
0.0598526
0.0343323
0.0693893
0.0743866
0.0885391
0.131073
-0.242271
-0.315666
-0.0428391
0.1297
0.124168
0.00293732
0.0315094
0.0396347
0.111046
0.109291
0.0902557
-0.09655
0.0310898
0.0482941
0.112
0.131912
0.153542
0.0780869
0.0592041
0.143814
0.0882721
0.0610352
0.0479507
0.103226
-0.113831
-0.0537109
-0.0361252
-0.00259399
0.0174713
0.047226
0.0683594
0.0409698
0.0703812
0.0231171
0.0318909
0.0944519
0.163498
0.175591
0.115166
-0.0473785
-0.127335
-0.133591
-0.000343323
0.0648499
0.0511932
0.0603485
0.0666428
0.143204
0.197029
0.0214005
-0.0124741
0.100784
0.098114
0.0457382
-0.138016
-0.0617981
0.0492477
0.0691223
0.131683
0.198441
0.0817108
0.0239944
-0.116463
-0.185776
0.0116348
0.0880814
0.0692749
0.0920105
0.107613
0.111809
0.0527954
0.0481033
0.12394
0.169868
0.112877
-0.129395
-0.131912
0.114288
0.132713
0.0826263
-0.123749
-0.121689
-0.0823593
0.188332
0.315475
0.09552
-0.141754
-0.136719
0.00289917
0.0260162
0.0666428
0.106888
0.136032
0.165215
0.165558
0.0839615
0.210037
0.146523
0.0344467
-0.0785065
-0.099411
-0.0106812
0.0415802
-0.0437164
-0.128555
-0.0195694
0.129776
0.0474167
-0.0540543
0.135384
0.127106
0.0684357
-0.109024
-0.0342178
0.0518036
0.0250626
0.0989914
0.100174
0.10231
0.115395
0.0940704
0.0744629
0.0918198
0.109673
0.0520706
0.0408936
0.057373
0.0762558
0.0723267
0.0440979
0.0598526
0.0260925
0.128975
0.161438
0.0842667
-0.214767
-0.200005
-0.18074
-0.16613
-0.0344849
0.0320053
0.0471497
0.13073
0.0471878
0.0445557
0.0825882
0.130959
0.126038
0.133286
0.12867
0.127106
0.114937
0.0888443
0.0974655
0.149345
0.143547
0.07061
0.0273895
0.0643539
0.0795364
-0.0563431
-0.184212
-0.117149
-0.03582
0.00923157
0.0253296
0.080452
-0.103226
-0.00926971
-0.00305176
0.0461197
0.0159836
0.0361633
0.0782013
0.14267
0.175209
0.151558
0.160637
0.135193
0.072403
0.13401
0.0942993
0.111885
0.10582
-0.0320435
-0.094986
-0.215645
-0.118217
-0.0563049
0.0337601
0.0302124
0.0542068
0.0562286
0.0828934
0.127907
0.186234
0.167885
0.178337
0.0936508
-0.159149
-0.179749
-0.0365067
0.0572205
0.0827026
0.0563431
0.0470352
0.0743484
0.109634
0.0856781
0.111351
0.0941849
0.0794983
0.0126266
0.0284576
-0.00869751
0.00591278
0.0714493
0.0720215
0.0411224
0.0765991
0.0393677
0.0289917
-0.0407028
0.0370026
-0.0690079
-0.0934601
-0.0669479
-0.0239563
0.0560379
0.129738
0.1408
0.112038
0.102654
0.091629
0.109482
0.203476
0.231209
0.170364
-0.0463867
-0.020256
0.144768
0.08564
-0.161858
-0.313606
-0.1651
-0.125046
-0.107994
-0.0515366
0.0720215
0.173912
0.275269
0.290985
0.257874
-0.0679016
-0.0602722
0.107727
0.076561
0.015831
0.0749207
0.0844955
0.0922394
0.0939178
0.0956726
0.08461
0.0998688
0.0821304
0.0340652
0.18959
0.285378
-0.0408554
-0.124588
-0.222054
-0.11261
-0.196953
-0.296593
-0.0747299
0.0379181
0.0658798
0.0707245
0.110779
0.141716
0.149422
0.129204
0.133629
0.161667
0.126991
0.106392
0.145645
0.227432
0.139809
0.00240326
-0.0139236
-0.0857162
-0.195465
0.00549316
0.0676346
0.0358582
0.013504
0.0429153
0.043869
0.134201
0.194931
0.154495
-0.0676346
-0.0899124
-0.166893
-0.191689
0.0835037
0.175056
0.106354
-0.095787
-0.0605774
0.104561
0.118446
0.161591
0.282478
0.311623
0.214348
-0.217247
-0.146599
-0.0790405
-0.00713348
0.0133133
0.00278473
-0.00915527
0.106812
0.112495
0.100288
0.0998306
0.0807571
0.132408
0.106277
0.15564
0.105095
0.0965881
0.0899124
-0.282516
-0.319023
-0.137901
-0.0789261
0.0835419
0.0309753
0.0767517
0.121918
0.102959
0.119057
0.137291
0.168915
0.242577
0.234871
0.135422
-0.153389
-0.155563
-0.00278473
0.0891113
0.0218964
-0.0349045
0.0775528
0.074501
0.0899887
0.0862122
0.0836945
0.129166
0.1548
-0.0642395
-0.223923
-0.23407
-0.0109482
0.0485992
0.0967407
0.0344849
0.0557709
0.132103
0.153198
0.120125
0.102386
0.0230408
0.0407791
0.053978
0.134392
0.113869
0.0465012
-0.110359
0.00724792
0.0537872
0.0264359
0.0665665
0.0950623
0.0411606
-0.00141144
0.0233841
0.0305939
-0.010376
-0.0109863
0.0740433
0.127449
0.067749
0.112457
0.104675
0.0365448
0.127754
0.00709534
-0.163078
-0.146637
-0.0578308
0.10952
0.0316238
0.0510788
0.0889587
0.0860596
-0.00785828
0.24292
0.176811
0.103951
0.0647354
0.0160599
-0.0252914
-0.100632
-0.0663376
0.0203705
0.0644684
0.0668335
0.0870514
0.0973129
0.0905228
0.0999451
0.180168
0.270538
0.180855
-0.119629
-0.2248
-0.0107574
-0.0231934
-0.159721
-0.0242233
0.0592041
0.0328827
0.069313
0.123672
0.15377
0.111465
0.0143051
-0.00911713
0.0695801
0.0276184
0.0233078
0.0844955
0.12085
0.147209
0.150604
0.0220108
0.030632
0.02285
-0.151749
-0.0405884
0.0442505
0.0418091
-0.0146484
-0.0243378
0.0304031
0.0545502
0.063591
0.0786209
0.116997
0.167122
0.106964
0.0112534
0.0985718
0.110092
-0.068779
-0.0402832
0.0316238
0.0933838
-0.0217819
0.00385284
-0.088501
0.0113678
0.123863
0.158844
0.0610733
-0.0211334
-0.0499725
0.0558853
0.0568771
0.104599
0.137939
0.132141
0.147667
0.123329
0.102272
-0.0610352
-0.144196
-0.00804901
0.105934
0.141487
0.111237
-0.13298
-0.109406
0.0617218
0.0550079
0.0694275
0.0172424
0.0294113
0.0849152
0.0917435
0.0674438
0.0512695
0.0672913
0.0743866
0.0558472
-0.0165939
-0.056076
-0.0631714
-0.0102997
0.0355911
0.0748444
0.0981903
0.130806
0.145416
0.129433
0.11879
-0.00228882
-0.0043869
-0.0168991
0.0737762
0.0766373
0.114517
-0.0121689
-0.0951004
0.0128174
0.0227356
0.0113678
-0.0230408
0.0126648
0.199242
0.291023
0.149651
0.150185
0.0930786
-0.206795
-0.32238
-0.0979233
-0.0267792
0.063858
0.102425
0.103798
0.118141
0.108986
0.133133
0.104141
0.165443
0.139008
-0.0634003
-0.188293
-0.0181198
0.0464249
0.0132751
0.0999451
0.115891
0.121689
0.109329
0.184097
0.214615
0.0320816
-0.020256
-0.163383
-0.288391
-0.146255
0.0156021
0.0650406
0.0765991
0.092659
0.0910568
0.107155
0.167427
0.171089
0.107841
0.0389099
0.156898
-0.0442505
-0.0135803
0.181999
0.198288
0.0582504
-0.149651
-0.136604
0.0200653
0.0479126
0.0535202
0.0475311
0.0852585
0.0782013
0.0596237
-0.0271225
-0.0759506
0.110588
0.0317001
0.0340652
0.132942
-0.0365829
0.0163651
0.0445938
-0.11879
-0.102081
0.0553131
0.124817
0.110092
0.163574
0.125351
0.0556946
-0.0191116
0.0323868
0.106201
0.122604
0.121994
0.0811005
0.0370789
-0.000953674
0.0248337
0.111008
0.104179
-0.0383377
-0.00576019
0.0257874
-0.00648499
0.0273895
0.25177
0.0519943
-0.111618
-0.0701523
0.0155258
-0.159111
-0.234261
0.0431061
0.0966263
0.129318
0.13092
0.162392
0.148964
0.160522
0.219994
0.255356
0.123558
-0.0452805
-0.113335
-0.0232697
0.0263596
-0.203819
-0.0395203
0.00492096
0.0738907
0.12104
0.150146
0.185509
0.126991
-0.0876617
-0.0715637
-0.0381851
0.0580597
0.0802994
0.100708
0.0372314
-0.0184631
0.0733566
0.095253
0.0964355
0.142097
0.0875092
-0.142136
-0.11158
0.0390244
0.0739288
0.185318
0.151367
0.0297546
-0.0184631
-0.00427246
-0.0938797
-0.0534058
0.0148773
0.0667191
0.0782394
0.0811386
0.108414
0.206833
0.242424
0.168762
-0.0675964
-0.148125
-0.181999
-0.0685501
0.0834656
0.0305557
0.0782013
0.0808716
0.101509
0.175705
0.249596
0.284691
0.152054
-0.172577
-0.165977
-0.354004
-0.112114
0.0227737
0.0563812
0.0839615
0.101891
0.0927353
0.100899
0.124817
0.148201
0.134163
0.0908279
0.0712967
0.0931168
0.138817
0.0540161
0.0276566
0.156708
-0.0043869
-0.0782776
-0.178909
-0.146561
0.0138092
0.112534
0.0610733
-0.0217056
-0.0250244
0.0670242
-0.0710678
0.0208664
0.0990677
0.137329
0.117073
0.11158
0.135384
0.12825
0.0974274
0.0853348
0.110054
0.0730515
-0.0221634
-0.0461197
0.0699997
0.0473404
-0.00728607
0.0714493
-0.0643158
-0.0500488
0.0669479
-0.016098
-0.0531006
0.0576782
0.0696945
0.0621033
0.0550079
0.107689
-0.0247192
0.0144577
0.0625992
0.128822
0.176926
0.13958
0.0278854
-0.0206375
0.0727463
0.123444
-0.035553
-0.0870895
-0.022049
-0.0143051
0.0302505
0.0534439
0.0662613
0.145454
0.192795
0.00709534
-0.102158
-0.0263977
0.0422668
0.154457
0.220222
0.0710678
-0.00133514
0.0107574
-0.107384
-0.0285721
-0.0746155
-0.046463
0.0709152
0.113869
0.148354
0.160484
0.206566
0.245476
0.0947952
-0.183945
-0.268402
0.00507355
0.11673
0.00778198
0.0279999
0.039711
0.0176239
0.0718307
0.0826645
0.0815964
0.0452805
0.117989
0.0959778
0.0653076
0.0683212
0.0519943
0.0365067
0.0736237
0.0466919
0.0772476
0.136223
0.164375
0.0826645
-0.111809
-0.285149
-0.0385666
0.0577927
0.0613022
0.0505066
0.09655
-0.00881195
-0.0613403
-0.0341034
0.0466156
0.0917435
0.190544
0.236626
0.046463
-0.167084
-0.152321
-0.0322342
0.0624084
0.11097
0.121117
0.213547
0.213127
0.0798035
0.0134659
0.00984192
0.0702286
0.0911713
0.00160217
0.0994492
0.106812
-0.053978
-0.138893
-0.013237
0.0299454
0.0387955
0.119858
0.0636673
0.0602341
0.0672913
0.130844
0.139542
0.0828934
0.03582
0.09758
-0.0211716
-0.0884247
-0.0702667
-0.0930023
-0.094986
0.0162506
0.0505829
0.058136
0.0878143
0.0913239
0.111313
0.133171
0.00873566
0.0461578
0.0616074
0.0724792
0.0982666
0.109177
0.119667
0.100441
-0.0548172
-0.0751495
0.0901031
0.101395
0.141296
0.0937271
-0.0166321
-0.031395
-0.00904083
0.000610352
0.122757
0.166092
0.0386429
-0.130043
-0.200157
-0.12825
-0.079689
0.0196457
0.0970459
0.102158
0.193672
0.223198
0.142784
-0.0313187
0.0836945
0.0571442
0.051651
0
0.110817
0.160866
0.132904
0.0508118
0.0201035
0.0455475
0.0138474
-0.0275803
-0.0325775
0.0268173
0.0503922
0.0488663
0.0994873
0.129585
0.107536
-0.0425339
-0.106163
0.0662231
0.121269
0.044136
-0.138092
-0.196495
-0.0202179
0.099144
0.123787
0.157814
0.195122
0.0963974
0.0246811
-0.0767899
-0.00148773
-0.0774002
0.0645447
0.131454
0.0862503
0.0592422
0.031395
0.0409317
0.04879
0.0818253
0.103149
0.130844
0.157547
0.210838
0.0224686
-0.125732
-0.0019455
0.0983429
0.0224686
-0.0876999
-0.091362
0.056076
0.0602341
0.0647354
-0.0555801
-0.0114059
0.0853348
0.0786972
0.130959
0.100594
-0.092392
-0.0139999
-0.00648499
0.0743484
0.133934
0.125198
0.0629044
-0.0119781
0.0693512
0.183678
0.291405
0.363731
0.111008
-0.323753
-0.120926
-0.242844
-0.142937
-0.159264
0.0649261
-0.0276947
0.0418854
0.0727844
0.10643
0.123672
0.136375
0.146179
0.176201
0.190735
0.167236
0.0874329
0.00404358
0.00400543
0.097084
0.0730515
0.117722
0.0884628
0.0574112
-0.0296021
-0.0164795
0.00759125
-0.2425
-0.271606
-0.0503159
0.0394058
0.0974655
0.0978088
0.0704956
0.0709534
0.076828
0.101395
0.1157
0.114746
0.101509
0.0911713
0.0918579
0.203743
0.290108
0.174446
-0.263901
-0.0575256
0.2005
0.110397
-0.197182
-0.17952
-0.207253
-0.116272
-0.0202942
0.0107574
0.0233841
-0.0693893
0.0860214
0.141525
0.150986
0.156364
0.1577
0.164528
0.169067
0.15213
0.11425
0.0905228
0.0705338
0.0436401
0.0666428
0.0827026
0.107574
0.1371
0.119362
0.0271606
-0.221024
-0.152435
-0.245056
-0.0527573
-0.0891495
-0.054245
0.0377274
0.0986481
0.0824738
0.100479
0.0943756
0.12413
0.120926
0.103874
0.085144
0.0823212
0.0849915
0.0805664
0.0752258
0.0754929
0.088501
0.10994
0.149841
0.207443
-0.169601
-0.184517
-0.00434875
-0.0631714
0.014267
0.14534
-0.0532913
-0.116043
-0.0365448
-0.0429535
0.0336838
0.0881958
0.14061
0.145493
0.0677872
0.139046
0.168037
0.161858
0.138626
0.0987625
0.111275
-0.0178909
-0.206604
-0.132484
-0.0445557
-0.00469208
0.0655365
0.144539
0.155182
0.126724
-0.0796509
-0.0790024
0.0790787
0.0828171
0.0444031
0.0606155
0.0580215
0.0771713
0.0831223
0.0933075
0.111008
0.162086
0.14473
0.211601
0.0216293
-0.0869751
-0.269165
-0.0476074
0.0733185
-0.0119019
-0.23716
-0.0165939
0.0753784
-0.0239944
0.0411224
0.0674438
0.100555
0.0884247
0.117645
0.121841
0.114288
0.112801
0.111656
0.105934
0.0994492
0.0837326
0.0720596
0.0632858
0.0603104
0.0494003
0.0763321
0.121574
0.149841
0.0499725
0.0193405
-0.156746
-0.11219
-0.209618
-0.198174
0.0521851
-0.00934601
-0.00370026
0.0765991
0.0225067
0.057373
0.112343
0.134964
0.144768
0.132332
0.140076
0.120354
0.073967
0.0419235
0.122871
0.160828
0.149345
0.0643539
-0.079422
-0.110245
-0.0113678
0.0492859
0.0242615
0.0780106
-0.026474
-0.126114
0.00328064
0.0351715
0.253296
0.0843811
-0.208626
-0.014267
0.0261688
0.0312042
0.0580978
-0.0331116
0.0426865
0.114212
0.138702
0.0970078
0.106125
0.103683
0.0909042
0.107574
0.140152
0.1828
0.224915
0.217743
0.00900269
-0.245705
-0.231667
-0.108948
0.0107574
0.132713
0.027504
-0.247612
-0.0872803
-0.0278854
0.0528717
0.0566483
0.0754547
0.10685
0.119362
0.134964
0.146217
0.196228
0.26516
0.286598
0.167351
-0.105629
0.00747681
-0.0146103
0.153885
-0.247307
-0.433693
-0.115891
-0.00102997
0.0198746
0.0928497
0.101738
0.118561
0.0867462
0.0868225
0.179482
0.240631
0.10025
0.116844
0.0834656
0.0654984
0.0254059
0.0293732
0.0461197
0.021553
-0.000228882
0.0469208
0.0577927
0.0683975
0.0482178
-0.0545502
-0.114555
0.139656
0.0507355
-0.0897217
-0.0943375
-0.0130463
-0.0827789
-0.00297546
0.140038
0.163727
0.249939
0.17849
-0.00720978
0.00293732
0.282784
-0.0150681
-0.145988
-0.245438
0.0172043
0.23365
0.0560379
-0.271416
-0.301361
-0.0322723
0.106277
0.101814
0.177002
0.211411
0.231819
0.245361
0.231552
0.161209
0.163651
0.144577
0.0748825
0.215034
0.310555
0.209236
-0.0489426
-0.128899
-0.399704
-0.258751
-0.0993347
-0.0447464
0.0800705
-0.165367
-0.134506
0.0485611
-0.00629425
0.0725937
0.0979996
0.104179
0.0963593
0.0965118
0.107613
0.110512
0.110054
0.10006
0.0914383
0.0618744
0.0448227
0.0492096
0.0556564
0.0445557
0.0572205
0.0623703
0.0754547
0.0737
0.0470352
0.108757
0.143204
0.0704956
-0.119858
-0.121498
-0.00846863
-0.112381
-0.0995255
-0.0926208
-0.119019
-0.06073
0.0812912
0.155754
0.187645
0.172234
0.106812
0.127831
0.132141
0.134621
0.135345
0.116005
0.0960541
0.102692
0.104332
0.100136
0.0724792
-0.00988007
-0.0640106
-0.0918198
0.0463486
0.130501
0.0248337
-0.0239182
0.0196075
-0.0639343
0.00667572
0.157852
0.107346
0.000495911
-0.366478
-0.184975
-0.014534
0.056839
0.126419
0.202866
0.190277
-0.0576019
-0.0331116
0.0741959
0.133018
0.181427
0.254784
0.219879
0.0387192
-0.152473
-0.0460815
0.0627136
0.119514
0.122643
0.119209
0.0983429
0.0773239
0.232735
0.0878906
-0.0391769
-0.293999
-0.319061
-0.253334
-0.0767899
0.0881958
0.0858307
0.109482
0.126305
0.148239
0.174522
0.177498
0.163269
0.14473
0.0747681
0.00526428
0.110435
0.150185
-0.0204086
-0.174637
0.00717163
-0.00881195
0.0272369
0.0569916
0.0458527
0.0234604
0.0662994
0.107422
0.109367
0.203323
0.239639
0.250282
-0.0224686
-0.0892639
-0.533028
-0.343971
-0.120277
-0.0405121
-0.00305176
0.0442123
0.106659
0.184555
0.228729
0.201988
0.08461
0.118599
0.146179
0.142288
0.125008
0.0415802
0.0397491
0.123749
0.139275
0.0867462
0.119247
0.219574
0.0857925
-0.0824356
-0.147018
-0.0106812
0.104065
-0.177193
-0.363922
-0.153542
-0.016098
0.139465
0.140114
-0.0305557
-0.0481033
0.053978
0.172424
0.140953
0.160484
0.147591
0.0882339
0.0322342
0.101967
0.136147
0.175362
0.109673
-0.0454712
-0.0192642
0.0824356
0.0507355
0.0867462
-0.0181961
-0.0764847
0.0156784
-0.0934219
0.0589371
0.0657654
0.00297546
0.0642776
0.0025177
-0.119133
-0.0753403
0.0397491
0.0857925
0.12558
0.150337
0.135689
0.00450134
0.188713
0.113831
0.0679779
0.0914383
0.085907
0.21553
0.0209045
-0.207367
-0.0735855
-0.105286
-0.038414
0.0237656
0.0323486
0.0585556
0.0830078
0.0939178
0.0981522
0.079689
0.0911713
0.105286
0.0994492
0.084877
0.0392532
0.0426102
0.0590515
0.0481796
0.0659943
0.160255
0.180435
0.253983
0.0814819
-0.178223
-0.314903
-0.187302
-0.0965881
-0.127487
-0.0801849
-0.103302
0.0293732
0.109749
0.130806
0.117073
0.156364
0.168533
0.159302
0.191002
0.212593
0.195045
0.0899506
-0.00713348
0.0553131
0.087738
0.146065
-0.00804901
-0.169907
-0.0773621
0.0785446
0.185242
0.149727
0.0883865
-0.152626
-0.285797
-0.077095
-0.0226974
-0.00480652
0.10273
0.11776
0.053978
0.0131989
0.0762939
0.0905609
0.138474
0.189056
0.0648117
0.0182343
-0.0811386
0.00389099
0.0205231
0.080719
0.0269318
0.0747681
0.0406647
0.0968933
0.0230408
0.147667
0.11982
0.240669
0.0608444
0.0317764
0.148048
-0.198593
-0.093689
-0.0531769
-0.114632
-0.0151062
0.0591278
0.149612
0.153809
0.0536728
0.121536
0.244942
0.172653
-0.0529099
-0.234528
-0.181084
0.0198746
-0.0344086
-0.0834274
-0.00785828
-0.0643921
0.0292587
0.050354
0.156937
0.203705
0.220795
0.202332
0.25383
0.195045
0.0171661
0.115395
0.0457382
0.0111008
0.0525665
0.0659943
0.151787
0.0893402
-0.346642
-0.186157
-0.13855
-0.00305176
0.0258255
0.0415802
0.0743484
0.0965118
0.14637
0.178299
0.109291
0.0260544
-0.00587463
0.0585556
0.223923
0.357361
0.177383
-0.148315
-0.261612
-0.255623
-0.124626
0.0463104
-0.00926971
-0.00659943
0.175285
0.316658
0.434494
0.210876
-0.211067
-0.508652
-0.271187
-0.0801849
0.0849152
0.0619125
0.0971985
0.108376
0.133476
0.148201
0.182076
0.190811
0.172997
0.199013
0.247993
0.245743
0.10994
-0.0657272
0.0976181
0.102997
-0.0471115
-0.181274
-0.233078
-0.184402
-0.0592041
-0.0262451
0.0540161
0.214767
0.324478
0.264435
0.0370026
-0.333366
-0.00457764
-0.0712204
-0.224037
0.0731277
0.00427246
-0.118523
-0.0443268
0.0754166
0.110397
0.134392
0.15625
0.167618
0.17395
0.215912
0.250702
0.338326
0.334015
0.239143
-0.0330353
-0.295982
-0.385437
-0.0674057
0.0172806
-0.110703
-0.178833
-0.150452
-0.0810242
0.0452423
0.16243
0.174599
0.186157
0.175247
0.154839
0.128174
0.15686
0.0872421
0.0708771
0.106163
0.0180054
0.0882339
0.144272
-0.285988
-0.108032
-0.0222778
-0.0185013
0.0507736
0.0534058
0.0990295
0.0996399
0.0975037
0.114784
0.0713348
0.186996
0.224724
0.0324631
-0.00320435
-0.0274277
-0.351257
-0.288391
0.0239944
0.108604
-0.00888824
-0.149994
-0.00240326
0.0862122
0.125427
0.206566
0.316772
0.33905
0.219574
0.0537109
-0.105209
0.0480652
-0.0721741
-0.0506592
-0.00537872
0.100517
0.0094223
0.0653839
0.0190353
-0.0221634
0.0652695
0.0543213
0.119896
0.139198
0.0785065
0.0469971
0.144272
0.186539
0.0881195
-0.0779343
-0.163689
-0.0140762
0.0294113
0.0521469
0.0110245
-0.177917
-0.108185
0.0473404
0.0759125
0.0947571
0.123253
0.136032
0.0550461
0.131493
0.127029
0.122185
-0.081749
0.00988007
-0.0719452
-0.22171
0.024147
0.171242
0.158043
0.11795
0.122147
0.0623703
0.13401
-0.0495529
-0.0526428
0.11219
0.178146
0.0690079
0.0306702
-0.0532913
-0.0647354
-0.0188065
0.0183487
0.120354
0.160446
0.0720596
-0.0371552
0.114441
0.350304
0.319443
0.062027
-0.260124
-0.420036
-0.202942
0.0798416
0.124207
0.0644302
0.0172043
0.0873566
-0.100708
0.091095
0.0465775
0.0225067
0.176315
0.198059
0.168304
0.105324
0.0130844
0.0523376
0.0577164
0.0677109
0.105324
0.135231
0.178795
0.0979614
0.0500488
-0.14328
-0.184822
-0.220833
-0.089798
0.037117
0.0012207
-0.0127411
-0.000610352
0.133476
0.271568
0.231476
-0.0244904
-0.0448227
0.107307
0.22213
0.00972748
-0.0112534
0.128288
-0.0635529
-0.107346
0.0354767
0.00892639
0.0450134
0.0634766
0.0629425
0.078392
0.0902557
0.108147
0.138931
0.175858
0.242424
0.241814
0.165138
-0.257454
-0.367737
-0.0837708
-0.187531
-0.141106
0.0143814
0.0969315
0.134087
0.0983429
0.154076
0.235786
0.202942
0.0811768
-0.00411987
0.0104523
-0.0982666
-0.0250244
-0.0157166
0.0481796
0.0673294
0.0743484
0.0993729
0.113983
0.105362
0.0667191
0.0582504
0.0780869
0.0793457
0.103607
0.102196
0.0245285
0.0226593
0.0613403
-0.0353241
-0.0685501
0.0708008
0.137024
-0.043869
-0.169868
-0.157127
0.0499725
0.00774384
0.0088501
0.0759888
0.0552368
0.169983
0.11055
0.0323868
-0.0334549
0.133438
0.253181
0.234871
0.04879
0.0182343
-0.0230789
-0.100365
-0.0426865
0.0440598
-0.0387192
-0.00740051
-0.018158
-0.0493622
0.0592422
0.0841141
0.106049
0.125656
0.14286
0.261917
0.343475
0.194359
-0.233002
-0.171165
0.0106812
-0.12085
0.0629807
0.0702286
0.0179291
-0.00534058
0.0511551
0.0559235
0.0614166
0.0656509
0.0893021
0.11116
0.151367
0.219727
0.103188
0.0910187
-0.0959778
-0.214386
-0.254173
-0.169296
-0.0783157
0.060463
0.101395
0.11673
0.117493
0.112724
0.156288
0.218849
0.317612
0.417213
0.166969
-0.301933
-0.441284
-0.0899506
0.0146103
-0.0346375
-0.0798798
0.0611496
0.0947952
0.0763702
0.0920868
0.0529861
0.177422
0.176392
0.0971222
0.0975418
0.0871277
0.0274658
0.0187683
0.0402832
0.0527954
0.0430679
0.0689697
0.0953293
0.119247
0.138741
0.0333786
0.0783539
-0.151024
0.0405502
0.192909
-0.133057
-0.276985
-0.142784
-0.13546
0.114326
0.0966263
-0.00595093
0.0288391
0.121193
0.168533
0.104332
0.0680161
0.0748825
0.170364
0.333633
0.307045
-0.112419
-0.0563431
-0.170708
-0.101128
0.0649643
0.114136
0.0673676
0.00968933
-0.135002
-0.00644684
0.150261
0.119019
-0.0683594
-0.0634003
0.0668335
0.161591
0.180092
0.0859451
0.00259399
0.0619507
-0.00686646
0.0816345
0.128059
0.0529861
0.0733566
-0.0269699
-0.0413895
0.000343323
0.0169373
0.117989
0.173225
0.111656
-0.0563049
-0.0392914
0.0310516
0.0478745
0.0658417
0.00762939
0.00946045
0.0494003
0.0501633
0.0520706
0.0662231
0.157166
0.258179
0.256271
0.198402
0.2174
-0.1791
-0.352097
-0.310631
-0.478363
-0.316582
-0.0824356
0.0513077
0.12516
0.162926
0.19043
0.220261
0.237236
0.234756
0.234451
0.212936
0.187378
0.219307
0.351448
0.371094
0.0476837
-0.507088
-0.267601
-0.0153351
-0.0177383
0.0754929
0.0500107
0.0956345
0.0498581
-0.128326
0.0585938
0.38559
0.405655
-0.142136
-0.539093
-0.334663
-0.276375
-0.077095
-0.00934601
0.0481415
0.127411
0.150604
0.166512
0.19352
0.221176
0.203209
0.167618
0.14782
0.136147
0.121841
0.119629
0.083847
0.0419998
-0.00686646
-0.0692368
-0.0226593
0.171356
0.0708389
0.151291
0.125351
-0.127754
-0.165138
-0.200386
-0.171471
-0.107651
-0.0111008
0.0491333
0.0326538
0.0751114
0.110016
0.131226
0.141335
0.133018
0.205307
0.328293
0.136719
-0.20546
-0.16201
0.159683
0.355034
0.34729
-0.102959
-0.482903
-0.345154
-0.0799942
-0.00667572
0.0400162
0.115509
0.105362
0.124397
0.146523
0.195732
0.259247
0.251656
0.109367
-0.0140762
-0.0376892
-0.100174
-0.093956
-7.63E-05
0.133514
0.18322
0.102997
0.0872421
0.0910187
0.231514
0.135956
-0.191689
-0.236931
-0.111046
0.0334549
0.0484467
-0.0236893
-0.104866
-0.0182724
-0.127068
-0.0186539
0.0774002
0.134926
0.126114
0.138893
0.130005
0.158195
0.220299
0.148277
0.220528
0.243225
0.0522614
-0.179863
-0.158348
-0.126076
-0.0185013
-0.0162125
0.00431061
0.10498
0.115242
0.0699234
0.131302
0.229988
0.199165
0.058136
-0.242577
-0.23201
-0.00114441
-0.0725174
-0.0050354
0.184975
0.267982
0.292282
0.0786591
0.0979614
-0.118256
-0.181503
-0.0845718
-0.0352859
0.0403214
0.0632858
0.0784302
0.0889587
0.125046
0.111275
0.38166
0.376816
-0.00453949
-0.395622
-0.409813
-0.11673
-0.0979614
0.0134277
0.119629
0.123024
0.144005
0.147781
0.149879
0.153656
0.157738
0.120163
0.18074
0.152206
-0.063324
0.132751
0.255356
0.213623
0.00232697
-0.187683
-0.357552
-0.223274
-0.120621
-0.0526047
0.0238419
0.0793457
0.0838089
0.0442886
0.0543213
0.189247
0.386009
0.338707
-0.00717163
-0.0329971
0.133972
0.0200272
-0.237312
-0.0110626
0.0518417
0.0337219
-0.256157
-0.136909
-0.0353241
0.032692
0.0909805
0.106544
0.137825
0.157471
0.257607
0.179939
0.134277
0.132103
0.0593185
0.0200653
0.0969315
0.11631
0.16613
0.262947
0.00720978
-0.355721
-0.317078
-0.110397
-0.0352478
-0.000839233
-0.0396347
0.015564
0.0131989
0.0725555
0.112877
0.13443
0.143394
0.134811
0.141563
0.139694
0.132713
0.0465775
0.0247192
0.10849
0.0672913
-0.0133133
-0.0285721
0.0729752
0.0664139
-0.0224686
0.112152
0.250092
0.115738
0.0463486
-0.163498
-0.343513
-0.372734
-0.169449
0.0850296
0.044136
0.0845337
0.125237
0.161591
0.193863
0.234947
0.215874
0.0997162
0.0525284
0.252113
0.275841
0.0622559
-0.0926971
-0.0237274
0.0829697
0.033226
-0.0377274
-0.221863
-0.22644
-0.12413
0.070343
0.0853348
0.0712204
0.076561
0.0978088
0.112267
0.107994
0.0820541
0.155716
0.200577
0.244446
0.130348
0.0378036
-0.138702
-0.0947571
-0.120316
-0.0941849
0.201607
0.224113
-0.103683
-0.079689
0.0442505
-0.349693
-0.108833
0.119553
0.131912
0.0131989
0.108147
0.179672
0.114822
0.0238037
0.064621
0.153046
0.20874
0.136871
-0.0182343
-0.00312805
0.0977707
0.219765
0.0925064
0.206642
0.266418
0.0270081
-0.315475
-0.301628
-0.0569916
0.0665665
-0.00591278
0.00259399
-0.06073
0.0508881
0.0933838
0.105286
-0.025177
0.0254822
0.183983
0.193176
0.227509
0.122566
-0.0823593
-0.139122
-0.0624847
-0.015564
-0.0260162
0.0628281
0.0637817
0.065155
0.165443
0.133705
0.0631714
0.0185394
-0.00835419
-0.0335312
0.032692
-0.0106049
0.0194168
0.133362
0.0466919
0.0465775
0.153313
0.141182
0.223427
-0.0602341
-0.121994
-0.0591278
0.0747681
0.0501251
0.0391006
0.0562286
0.0762939
0.117493
0.143471
0.00423431
-0.0442886
0.141296
0.132141
0.0802994
-0.0278473
0.181885
-0.164871
-0.29911
-0.137482
-0.0577164
0.0366592
0.0981522
0.0792694
0.0736618
0.123863
0.16571
0.201111
0.190582
0.0483704
0.0335693
0.0737762
0.107613
-0.0332642
0.00709534
0.0996017
0.0731659
0.0226974
0.162506
0.113068
-0.122643
-0.0813675
0.208893
0.2034
0.0798416
-0.174408
-0.200081
-0.323677
-0.149536
0.000114441
0.0369263
0.0834274
0.153198
0.159073
0.144043
0.150414
0.149689
0.142746
0.131531
0.148087
0.168114
0.178528
0.0667953
-0.0749207
-0.114021
-0.0738907
0.0799561
0.160179
0.193443
0.0872421
-0.0775528
0.0222015
-0.00827789
-0.126953
-0.239487
-0.254974
-0.111809
-0.0372314
0.07267
0.104561
0.123901
0.139275
0.185013
0.195236
0.163879
0.202789
0.123405
0.0783157
0.102348
0.139351
0.0437164
0.0115967
0.205269
0.106087
-0.229073
-0.188103
-0.0247192
-0.0342178
0.0934982
0.126534
0.0365448
-0.181274
-0.0056076
0.0463104
0.0449371
0.0819397
0.0778961
0.0762177
0.0782394
0.0728989
0.0851822
0.086174
0.0848007
0.0510406
0.0336838
0.0404739
0.167961
0.305176
0.185852
-0.0790405
-0.10479
-0.287361
-0.0611115
-0.161858
-0.0730515
0.0861359
0.0744629
0.0286865
0.0972748
0.124359
0.0592041
0.0694275
0.135803
0.0787735
0.111923
0.121193
0.0834656
0.0587082
0.0879669
0.0822449
0.133209
0.189171
0.043335
0.107498
0.0506592
0.0317383
0.0423431
-0.198975
-0.190086
-0.230827
-0.178719
-0.167732
0.0603104
0.136032
0.104332
0.134888
0.160255
0.121307
0.0883484
0.115318
0.0912094
0.140381
0.162888
0.130844
0.0708008
0.0518036
0.1091
0.0817108
0.0636673
-0.00469208
-0.0231552
0.0336456
0.0655746
0.014801
-0.0291824
-0.0787735
0.00087738
-0.0347519
-0.0683594
0.0230408
0.0405884
0.0326538
-0.0619507
0.0453186
0.143433
0.014267
0.0524521
0.0907516
0.150337
0.13958
0.0172043
0.0418472
0.0673294
0.0557709
0.0823975
0.0806427
0.0601959
0.0799561
0.208817
-0.000228882
-0.0292969
0.127487
-0.158119
-0.244026
-0.0601578
-0.0346375
-0.0361633
0.0317383
0.177193
0.149994
0.160904
0.156059
0.140915
0.0682831
0.0741196
0.07164
0.164604
0.256996
0.0574875
-0.17437
-0.094986
-0.0700378
-0.0465393
0.0357819
0.0685501
0.104523
0.118942
0.0336075
0.200729
0.119781
-0.30262
-0.176353
-0.03582
-0.0529099
0.0113678
0.0745392
0.163002
0.151215
0.0960159
0.0553131
0.105362
0.138893
0.120277
0.145645
0.0936508
0.0163269
0.108833
0.115852
-0.0600052
0.0116348
-0.00976563
-0.0861359
-0.107193
0.0534058
0.04776
0.0621414
0.164757
0.191078
0.186996
-0.270195
-0.178452
-0.0786209
0.0488281
0.120888
0.113983
0.0857162
0.0193787
0.135307
0.155449
-0.0069046
-0.109978
0.0424194
0.105476
0.191307
0.230751
0.0378799
0.0784683
0.0222397
-0.0524521
-0.041008
0.0422287
0.117226
-0.0310516
-0.153427
-0.0428391
0.047226
0.0875092
0.103455
0.113373
0.165634
0.192528
0.257759
0.172806
-0.255508
-0.294189
-0.0867081
-0.0172043
0.0321579
0.057106
0.0815964
0.0695038
0.0721359
0.0791168
0.0984192
0.104599
0.100594
0.108948
0.112534
0.0836945
0.0657272
0.135841
0.293083
0.059967
0.036087
-0.0152206
-0.418129
-0.476875
-0.299263
0.175629
0.257301
0.210953
-0.0355911
0.0357819
0.153694
0.153618
0.0799561
0.0320816
0.184708
0.204048
0.169449
0.0968552
0.000228882
-0.00801086
-0.00854492
-0.0906754
-0.066185
-0.00164032
0.106201
0.116348
0.0863647
-0.0130463
0.0275421
0.0557709
0.0914001
0.053978
0.0585556
0.153008
0.110054
-0.0270844
0.0558853
-0.0788116
-0.0888062
-0.189896
0.107422
0.168152
-0.0244522
-0.0469208
-0.119286
-0.00167847
0.113297
0.123672
0.115318
0.173111
0.246696
0.272865
0.236893
0.0522232
0.14389
0.0661087
-0.143967
-0.262604
-0.141792
-0.190201
-0.168457
-0.14225
0.0100327
0.136833
0.185966
0.167465
0.172768
0.325851
0.362663
0.40062
0.157127
-0.242119
-0.193138
-0.184937
-0.0973892
-0.0851059
-0.0991058
-0.0136948
0.0941849
0.139503
0.178108
0.197372
0.244179
0.198135
0.0555801
-0.187454
-0.247192
-0.230637
0.024147
0.0838852
-0.039444
0.016861
0.0841522
0.122261
0.260925
0.317383
0.268898
0.0732422
-0.0959396
-0.0208664
-0.0997543
0.0117874
0.0269699
-0.0425339
0.109634
0.0866699
0.0440216
0.164833
0.201378
0.0726318
0.0245285
0.0213623
-0.0564194
-0.108376
-0.0359726
0.0769424
0.0531387
0.119858
0.280724
0.348396
-0.245819
-0.469017
-0.208969
0.0549316
-0.04776
-0.0909042
-0.0749588
0.0127411
0.122337
0.192337
0.187645
0.165596
0.154457
0.174446
0.168495
0.158386
0.119743
0.108109
0.0967407
0.0931931
0.200768
0.00106812
0.0127792
-0.00732422
0.00583649
-0.0627899
-0.041275
-0.0249481
-0.102081
-0.118256
-0.0770187
-0.00289917
0.0509262
0.0349426
0.0617218
0.10849
0.166321
0.266914
0.257454
0.0191116
-0.195236
-0.0965118
-0.150719
-0.0974655
0.0678635
0.0554276
0.0628662
0.0973511
0.122986
0.13607
0.132027
0.109482
0.10498
0.110435
0.133476
0.203743
0.014267
0.181198
0.020256
-0.124779
-0.101128
-0.0552368
-0.132561
-0.0550461
0.0181961
0.0234222
0.0793839
0.14061
0.046463
-0.0178528
0.00766754
0.0909042
0.10849
0.077858
0.0767899
0.0748825
0.0725555
0.0946426
0.174217
0.182266
0.00450134
0.0119781
0.117836
-0.15934
-0.206985
-0.0884247
0.119171
0.125465
0.158386
0.0462341
0.0400925
0.062561
-0.0651932
-0.208359
-0.164223
0.0428009
0.111465
0.118446
0.124054
0.121346
0.119095
0.124512
0.131416
0.131111
0.0972748
0.124397
0.149727
0.0975418
0.00904083
-0.0152588
0.0277328
0.0139236
-0.0249863
0.0387192
0.0252533
-0.00274658
-0.102539
-0.0613403
0.141373
0.161858
-0.0655365
-0.0863647
-0.0366974
0.0082016
0.12764
0.0660706
0.00572205
0.0302505
0.0492096
0.11219
0.121002
0.164604
0.141411
0.102768
-0.0235748
0.0984573
-0.0780869
-0.167198
-0.162163
0.000572205
0.0820923
0.0695419
0.204163
0.271873
0.276299
-0.0218201
-0.439262
-0.0111008
0.122223
0.145149
0.205383
0.223579
-0.0608826
-0.133667
0.00709534
0.049324
0.075531
0.0815582
0.104065
0.159988
0.117607
0.0662994
0.016861
0.175858
-0.161362
-0.0294113
-0.0989532
-0.0578308
0.0499344
0.02285
0.0624466
0.145416
0.169792
0.180321
0.0678253
0.138741
0.0764465
0.00740051
-0.157242
-0.166512
-0.102806
-0.197182
-0.182228
0.0317001
0.296288
0.166092
0.130692
0.0914764
0.110474
0.241852
0.176239
-0.00728607
-0.115891
-0.0179672
0.0492096
0.0377274
0.123367
0.0503922
0.1548
0.322838
0.261307
-0.0696564
-0.104904
-0.0598526
-0.229454
-0.101662
-0.0580215
0.106087
0.107803
0.0798035
0.0603867
0.0463867
0.0744247
0.050621
0.106697
0.160141
0.229797
0.200996
-0.0134277
-0.118637
-0.0243378
-0.0962067
-0.256615
-0.137863
-0.00713348
0.0332642
0.12413
0.133133
-0.00980377
0.0674438
0.132828
0.140686
0.135956
0.132675
0.0983429
0.0714874
0.0717163
0.131683
0.119858
0.0303268
-0.0110245
0.0944138
0.187569
0.0857544
-0.0397491
-0.0486374
-0.0725555
-0.131073
0.0111771
-0.022583
-0.082283
-0.0339508
0.0562668
0.0537872
0.0610733
0.0813675
0.159874
0.0651932
0.102348
0.0884247
0.0318146
0.119858
0.0629425
-0.118561
0.0876999
0.169792
0.231247
0.0213623
-0.0502777
-0.100975
-0.0392532
-0.0692368
-0.162315
0.00244141
0.092659
0.120277
0.161743
0.098381
0.0954819
0.10231
0.233116
0.327454
0.250282
-0.0782776
-0.152321
-0.25856
0.0571442
0.130081
-0.0712204
-0.116615
-0.0483704
-0.0188446
0.00980377
-0.0869751
0.0796509
0.0842285
0.124969
0.205688
0.204048
0.21595
0.156136
0.155373
-0.0442505
0.031395
-0.0613022
-0.0452805
-0.168343
-0.0862885
-0.018959
0.018959
0.096283
0.119743
0.0963211
0.0993347
0.144615
0.184898
0.200882
0.283279
0.115089
-0.408745
-0.237541
-0.0922394
-0.00537872
0.026207
0.0797272
0.0893784
0.0694275
0.090332
0.102768
0.0993729
0.0856781
0.087204
0.153999
0.231857
0.248375
0.102005
-0.156479
-0.0765228
-0.268517
-0.172882
0.0673676
-0.121803
-0.180511
0.024147
0.042572
0.0743866
0.130196
0.200729
0.203629
0.134621
0.0892258
0.0636292
0.136909
0.181274
0.191231
0.0963211
0.0601959
0.146828
0.0341797
-0.0849152
-0.307693
-0.138092
0.0767517
0.059166
0.0166321
-0.034256
0.0352097
0.00965118
0.0513458
0.0949097
0.0823212
0.125809
0.213623
0.16964
-0.0616837
-0.0193787
-0.000610352
0.215149
0.198936
-0.0497055
-0.200462
-0.0765991
-0.0893021
0.0125504
0.0511551
0.0439453
0.0623322
0.0860596
0.0959015
0.100517
0.0960159
0.0934601
0.105629
0.111122
0.0787735
-0.00335693
-0.0355911
0.028801
0.0948334
0.0806046
-0.101395
-0.021019
-0.00617981
0.0233841
0.0415039
0.0920868
0.163269
0.129395
0.141602
0.0593948
-0.000267029
0.0589752
0.131264
-0.0857544
-0.180931
-0.0296021
0.00354767
0.0330353
0.0506973
0.0533295
0.0649643
0.0352478
-0.0304031
-0.0294495
0.159531
0.278893
0.170135
0.0544739
0.0607681
-0.0201035
0.0691986
0.143852
0.132599
0.0374603
-0.0273895
-0.0825119
-0.235786
-0.0703049
0.0471878
0.0854874
0.122223
0.142288
-0.00392914
0.0162125
0.010643
0.0959396
0.120277
0.079422
0.0723267
0.0595474
-0.0817871
-0.0507736
0.0154877
0.0624847
0.0352859
0.0865173
0.0370407
0.0430298
0.313759
0.302086
0.0836563
-0.107002
-0.120621
-0.0382614
0.0012207
0.0256348
0.057106
0.0828171
0.139313
0.187225
0.218582
0.00976563
-0.192795
-0.131454
0.0906754
0.07164
0.100899
0.0294876
-0.0572205
0.00526428
-0.0287628
-0.157318
-0.198059
-0.147018
-0.0547791
0.128746
0.143013
0.181503
0.185699
0.190048
0.184174
0.184441
0.164108
0.123901
0.128021
0.162506
0.0637817
0.108147
0.057373
-0.0448227
-0.0302887
-0.00759125
-0.0382614
-0.0094986
0.00919342
0.0701523
0.116539
0.00846863
-0.193596
-0.247421
-0.107613
-0.0419998
0.067482
0.134773
0.170631
0.138626
0.0643921
0.0977325
0.372467
0.189133
-0.0462723
-0.272713
-0.193939
-0.146561
-0.0423431
0.0709152
0.0995255
0.130386
0.144119
0.156136
0.183067
0.165901
0.0744629
0.144081
0.108528
-0.00038147
0.0476456
0.100174
0.102005
0.104446
0.0336456
-0.0839233
-0.0672531
-0.0779343
-0.0125122
0.00900269
0.0181961
0.106773
0.228691
0.150108
0.0160599
0.108757
0.0286865
-0.210648
-0.408173
-0.109367
-0.0951004
0.0387955
0.0997162
0.129166
0.127258
0.115814
0.12516
0.166245
0.1577
0.153046
0.155945
0.115395
0.100212
0.055275
0.00923157
-0.0387192
0.124474
0.0828934
0.098381
0.162544
0.110245
0.110817
-0.0938797
0.0136948
-0.245819
-0.292664
-0.175896
0.0012207
0.0439835
0.0122833
0.0069809
-0.00335693
0.0955582
0.136414
0.151863
0.157471
0.15728
0.280228
0.319672
0.260735
0.112762
-0.0252151
-0.360413
-0.326347
-0.178795
0.0365067
0.0390244
0.0449371
0.0400543
0.043602
0.0883865
0.05867
0.0758743
0.152283
0.162315
0.144577
0.075264
0.192909
0.243111
0.156898
-0.0513458
-0.0567627
0.00293732
0.0238037
-0.0351715
-0.0503922
-0.0157928
0.0468063
0.100212
0.111618
0.0642776
-0.157166
-0.158195
-0.0498962
0.116577
0.108871
0.0388336
0.123062
-0.00389099
-0.0196457
0.0260544
0.0675964
0.0567245
0.0302887
-0.0666428
-0.0691986
0.0487518
0.15255
0.17746
0.0919342
0.128937
0.116501
0.190659
0.184097
0.0300217
-0.0709915
-0.02491
0.0141525
0.016861
-0.0194168
-0.0414658
0.0547028
0.144196
0.154686
0.10643
0.0883102
-0.145874
-0.176239
0.0200272
0.00629425
0.118561
0.163078
0.0369263
-0.0520325
-0.0149155
0.0936127
0.126724
0.117073
0.0616455
-0.0352478
0.0594711
0.10807
-0.0197983
-0.0111389
-0.00404358
0.0544357
0.0561142
0.154724
0.199356
0.142288
-0.097847
-0.0333405
-0.0517654
-0.0795746
-0.0181198
0.00854492
0.0704575
0.0932312
0.120277
0.130234
0.0999069
0.00240326
0.0792694
0.12558
0.157509
0.0989532
-0.0843811
-0.121765
0.0069046
-0.0179291
-0.0387573
0.0138092
0.0570297
0.0962067
0.143585
0.25116
0.217934
-0.0438309
-0.0874329
-0.0553131
-0.110283
-0.0630188
0.22728
0.0559235
0.0529861
0.149651
0.119019
0.173607
0.135612
-0.174637
-0.254402
-0.174179
0.00663757
0.0527954
0.104256
0.101509
0.100288
0.105896
0.135841
0.0715637
0.0431442
0.112
0.119781
0.171165
0.265694
0.271492
-0.00106812
-0.299492
-0.19249
-0.0431824
0.0313568
0.0532532
0.0289154
0.0261688
0.0202942
0.0521851
-0.029335
0.000686646
0.0191116
0.0451279
0.0822449
0.126381
0.0740433
0.0245667
0.148277
0.108871
0.0806046
0.0680542
0.0676346
-0.0284958
-0.0386047
0.0529099
0.031395
-0.0536346
-0.0190353
0.0593567
0.101013
0.1091
0.00312805
-0.0678635
0.0554657
0.10376
0.0906754
0.0430679
0.0495148
0.0840378
0.111618
0.122604
0.0775528
0.0876236
0.159187
0.102692
-0.102272
-0.23201
-0.0970459
-0.0179672
0.00164032
0.0634003
0.0617981
0.082283
0.133362
0.109596
0.0611115
0.00217438
0.102158
0.103455
-0.0108719
0.0704956
0.0901413
0.0250244
-0.00480652
0.065155
0.134087
0.10788
0.122032
0.0457764
-0.0204468
0.0307083
-0.0333786
-0.00961304
0.0242615
0.115776
0.152016
-0.186577
-0.283432
-0.225754
-0.00865936
0.117989
0.121956
0.113525
0.122566
0.134392
0.141029
0.156136
0.155106
0.145798
0.0945663
0.1828
0.107193
-0.0234604
0
0.00514984
0.0662994
0.106316
0.00911713
0.0132751
0.0204086
0.119133
0.0328827
-0.191269
-0.221825
-0.11631
0.0411987
-0.0177383
0.0543213
0.0644684
0.108337
0.114899
0.110931
0.119514
0.112534
0.099678
0.0843811
0.0606155
0.0141525
0.0873566
0.127525
0.193863
0.0408936
-0.236206
-0.112495
0.00736237
0.105591
0.161324
0.045166
-0.0420761
0.00774384
-0.12394
-0.00583649
0.0361633
0.0889969
0.112076
0.10788
0.210762
0.205078
-0.021553
-0.00629425
-0.00114441
0.0133133
0.159378
0.115051
-0.00865936
-0.0141907
0.0401688
0.149155
0.0389481
0.0671768
0.0594711
-0.237122
-0.164795
0.135765
0.126228
0.027504
-0.00137329
-0.0669098
-0.0164413
0.0671387
0.121765
0.079422
0.0934982
0.117874
0.149422
0.196342
0.217438
0.0257874
-0.13649
-0.0206757
-0.00301361
-0.0176239
-0.00301361
0.0511932
0.0279617
0.0618744
0.104828
0.0715637
0.0817108
0.0567627
-0.0402451
-0.0185776
0.0928497
0.113602
0.0688553
-0.00598907
0.077858
0.0875473
0.131683
-0.0825119
-0.190887
-0.108757
-0.0407028
0.0554657
0.0463104
0.0662613
0.103493
0.109329
0.116806
0.140343
0.106544
0.0910568
0.123138
0.0745392
-0.000610352
0.0183105
0.0392914
0.175972
0.210495
0.000228882
-0.0973129
-0.152283
-0.0688934
-0.000114441
0.0193405
0.0551987
0.075531
0.062027
0.0120544
0.0992203
0.130119
0.124207
0.091095
0.154762
0.0897598
-0.0378418
-0.112381
0.0284958
0.0102234
-0.108147
0.0629807
0.0902939
0.0658417
-0.116386
0.02285
0.0801468
-0.0434875
0.0473404
0.0632477
0.213966
0.21843
0.0569534
-0.0159836
-0.0248337
-0.0455475
0.0450134
0.0272369
0.119896
0.0809479
0.0881577
0.130577
0.127449
0.203171
0.0396347
-0.0395966
0.0402069
-0.0123596
-0.0385666
-0.0695038
-0.0456619
0.0213242
0.0579453
0.141258
0.152893
0.0594711
-0.0465393
-0.0312424
0.0474167
-0.0152588
-0.103035
0.030899
0.220909
0.119438
-0.00175476
0.00335693
0.0550842
0.108643
0.218658
0.0643539
-0.1474
-0.180359
0.0224304
0.0748444
0.0641251
0.0662613
0.0794983
0.1297
0.177803
0.0746918
0.0383759
0.321198
0.403214
-0.0285339
-0.502396
-0.291672
-0.0768661
-0.0216293
0.0365829
0.0600052
0.0889587
0.109444
0.11013
0.127449
0.157967
0.224915
0.13092
0.00720978
0.124931
0.136108
-0.0196457
-0.0908661
-0.179138
-0.0827026
0.00869751
-0.00286102
0.0513458
0.0748444
0.09552
0.115585
0.154305
0.171165
0.141029
0.199661
0.0549316
-0.0203323
-0.17025
-0.186043
0.0343323
-0.0364685
-0.169373
0.0497437
0.0741577
0.0447464
0.0416946
0.0816727
0.110168
0.129547
0.174713
0.250015
0.171661
0.0295639
-0.0349426
0.0882339
-0.0138474
-0.0940704
-0.0352859
0.0411224
0.112305
-0.00465393
-0.0712204
-0.0435638
-0.0289917
0.0859451
0.215492
0.349426
0.316277
-0.0106812
-0.377464
-0.170403
-0.105858
-0.0136948
0.0672531
0.0808334
0.134888
0.16983
0.132484
0.000991821
0.118446
0.277634
0.204849
-0.0341797
-0.247917
-0.026474
0.136375
0.0579834
-0.0160217
-0.0161743
0.0189209
-0.0117111
0.0527191
0.0663376
0.119324
0.210762
0.206985
0.0310135
0.0909805
0.159187
-0.0963593
-0.2631
-0.243111
-0.143013
-0.0495911
0.0667191
0.153122
0.128784
0.0891113
0.27092
0.247498
0.143776
-0.0688553
-0.220604
-0.00595093
0.0445175
0.100174
-0.0498962
0.00862122
0.0417328
0.101585
0.0730133
0.101395
0.158806
0.200272
0.199318
0.186157
-0.0178146
0.0447464
-0.0946808
-0.0157928
-0.139236
0.0572205
0.0395584
-0.0135803
0.0977325
0.178261
0.0671005
0.0630569
-0.0112915
-0.11795
-0.0223923
-0.00488281
0.0847244
0.183487
0.128555
-0.107613
-0.316696
-0.0404739
0.037384
0.181427
0.257683
0.212708
0.0950241
0.09552
0.144081
0.0729752
-0.0174332
-0.327034
-0.215721
-0.0611496
0.080452
0.0966644
0.0935745
0.170555
0.310783
0.364456
0.309753
0.161171
-0.26207
-0.282021
-0.251198
-0.134583
-0.0676727
0.0499344
0.107384
0.144463
0.158081
0.160599
0.152588
0.179329
0.355606
0.486641
0.244789
-0.170174
-0.201187
-0.462341
-0.256004
-0.181999
-0.0868225
0.00823975
0.0754547
0.103989
0.0972366
0.109482
0.12661
0.129662
0.141602
0.190811
0.228882
0.229263
-0.0056839
0.0986862
-0.0710678
-0.0704193
0.0320435
0.0190735
-0.255394
-0.171127
-0.0211716
0.0584412
0.0462341
0.0906372
0.109634
0.0815964
0.183411
0.205994
0.118332
-0.03479
-0.000267029
0.165977
0.188484
0.0622559
-0.277214
-0.16613
0.0721741
-0.00209808
0.0524139
0.148811
0.135689
0.0793839
0.149536
0.0350571
-0.055542
0.00831604
0.1474
0.145226
0.0347137
0.0660706
0.177383
0.033493
-0.0780487
-0.130386
-0.144997
-0.0627899
-0.137787
-0.0542068
0.0623703
0.128632
0.0928116
0.172577
0.242348
0.234604
0.120773
-0.0662994
0.0365067
0.0972366
-0.0820541
0.0401306
0.074234
0.118752
0.136147
0.0234222
0.0118256
0.108032
0.343475
0.0432968
-0.120697
-0.17765
-0.0952148
-0.149651
0.0335693
0.116768
0.122986
0.0264359
0.0128555
-0.0750351
0.0524902
0.078392
0.0525284
0.0900269
0.107498
0.0733185
0.0786591
0.107384
0.141068
0.121193
0.0815582
0.0749969
0.0735474
-0.00797272
-0.0506592
-0.145111
-0.148735
-0.0690079
0.10128
0.138206
0.0444412
0.0977325
0.396538
0.376816
-0.0541687
-0.376396
-0.297203
-0.017662
-0.102043
-0.0989151
0.0833893
0.0885773
0.179253
0.256538
0.259933
-0.0210571
0.0139999
0.136414
0.137558
0.0909424
0.0791168
0.115929
0.0875473
0.0630951
0.0831223
0.100822
-0.0543976
-0.0631714
0.0267029
0.0771332
0.109138
0.15461
-0.0765991
-0.258522
-0.264702
-0.032692
-0.0138855
0.0216675
0.0723648
0.109825
0.150566
0.248299
0.314674
0.158081
-0.0878143
0.109367
-0.00881195
0.15358
0.167427
-0.0595856
-0.194969
-0.245934
-0.245399
-0.141869
0.00286102
0.116348
0.147858
0.150528
0.133362
0.198593
0.259438
0.150375
0.159721
0.165329
0.104713
0.0277328
-0.0535202
-0.00823975
-0.0765991
-0.135231
-0.0019455
0.0134659
0.0894165
0.1017
0.0258636
0.0387192
0.0884247
0.0825882
0.111008
0.183105
0.273476
0.0314713
-0.125656
-0.0737
-0.0652695
-0.127907
-0.11898
-0.0614548
0.0402451
0.0392914
0.0606155
0.0898743
0.0974274
0.0990295
0.10704
0.0983429
0.081749
0.113983
0.166206
0.140266
-0.0212479
0.0580597
0.15728
0.1894
0.103035
-0.105133
-0.201378
-0.221443
-0.266457
-0.0257492
-0.0056839
0.0293732
0.124207
0.170555
0.0340652
0.103569
0.120926
0.142174
0.142479
0.0878525
0.116997
0.126801
0.0914764
0.0888824
0.0598526
0.0579071
0.0689316
0.0421906
0.0379562
0.052948
0.1334
0.120163
-0.0410843
-0.0705719
0.099411
0.0212097
-0.089035
-0.233612
-0.130157
-0.114899
-0.0653076
0.0429535
0.0796127
0.0989151
0.110931
0.10849
0.107002
0.112419
0.165558
0.179443
0.159302
0.21534
0.0436401
-0.119743
-0.106583
0.0415802
0.000114441
-0.0486374
0.0056076
0.0272369
0.0170517
0.0776672
0.0900269
0.0731659
0.0758362
0.0811005
0.0828552
0.0814819
0.0787354
0.0745773
0.0636673
0.057373
0.0396347
0.0321579
0.0382614
0.0350952
0.0248337
0.0156784
0.0174332
0.0215912
0.0234222
0.0254059
0.0283051
0.0271606
0.0270462
0.0226593
0.0230408
0.0242615
0.0287247
0.0341415
0.0391769
0.045433
0.0478363
0.056076
0.0533295
0.0389481
0.062294
0.0550079
0.0497818
0.058403
0.0606155
0.0584412
0.0569916
0.0540543
0.0460434
0.0411224
0.0428391
0.0383759
0.0617599
0.0699997
0.128365
0.122719
0.0481796
-0.09655
-0.0642014
0.0494766
0.00984192
-0.023613
0.0183868
0.039978
0.0635529
0.075798
0.0917435
0.0876617
0.0736237
0.0743103
0.0917435
0.0923157
0.0439453
0.0657654
0.0708008
0.0730133
-0.0461197
-0.101738
-0.0245667
0.0432205
0.0928116
0.140991
0.160866
0.0580978
-0.0625229
-0.152817
-0.0901413
-0.0169373
0.0543594
0.0595856
0.0883484
0.0822449
0.0929642
0.130997
0.12825
0.142975
0.14843
0.124588
0.0628662
-0.110245
-0.0807571
-0.0298691
-0.0374985
0.0197601
0.0657654
0.0710297
0.0731659
0.0629807
0.0623322
0.0432205
0.0634384
0.0669479
0.0682068
0.0491714
0.0547028
0.0547028
0.0509262
0.0595474
0.0549698
0.0476837
0.041275
0.034256
0.0284576
0.0178146
0.0244141
0.0108337
-0.00087738
0.0188446
0.0273895
0.0360107
0.0326157
0.044632
0.0463104
0.0493622
0.0549698
0.0536346
0.0545883
0.0552368
0.0567627
0.0639343
0.0597
0.0484467
0.0430679
0.0383759
0.0448608
0.0434494
0.0470734
0.0479889
0.0419617
0.0443649
0.0418854
0.0401688
0.0518799
0.0563049
0.0462341
0.0320435
0.0320816
0.0358963
0.0430679
0.0459671
0.0432968
0.0382233
0.0449753
0.0514984
0.0514984
0.0446701
0.0413895
0.0438309
0.0328064
0.0290298
0.0361252
0.0363159
0.0509644
0.0524902
0.0547028
0.0546265
0.0466156
0.044632
0.0406647
0.0466919
0.0456238
0.0375748
0.0423813
0.0372696
0.0376129
0.0424957
0.0456238
0.049057
0.0559235
0.0496674
0.054245
0.0453949
0.0392532
0.0238419
0.0296021
0.0403214
0.0505447
0.0350952
0.0361252
0.0356674
0.0450516
0.032196
0.04879
0.0623322
0.0585175
0.0420761
0.0535965
0.0514221
0.0489044
0.0471878
0.049324
0.0421524
0.0434494
0.0476074
0.0459671
0.0481415
0.0487518
0.0414658
0.0336456
0.0328445
0.0294876
0.0275421
0.0366974
0.0444412
0.0455856
0.0494003
0.046463
0.043869
0.0408173
0.0374985
0.0378799
0.0416565
0.0458908
0.0499344
0.0505829
0.0494385
0.0439072
0.0437546
0.0484085
0.0476837
0.0443268
0.0402069
0.0420761
0.043335
0.0494385
0.050354
0.0509644
0.0479507
0.0450516
0.0451279
0.0439835
0.0422287
0.0401688
0.0397491
0.0406265
0.041008
0.0389862
0.0382233
0.0438309
0.0441742
0.0430298
0.0408554
0.0443268
0.0453568
0.045929
0.0454712
0.0484085
0.0432205
0.0388336
0.0405884
0.040741
0.0407791
0.0471497
0.0473022
0.0465775
0.0482559
0.0452423
0.0443649
0.0453568
0.0489807
0.0455856
0.0407791
0.041275
0.0392151
0.0395966
0.0439835
0.0453568
0.0427246
0.0359344
0.0353622
0.0413132
0.0377655
0.0422287
0.045166
0.0457764
0.0418091
0.0435257
0.0480652
0.0498581
0.0505066
0.0481415
0.0436783
0.0480652
0.0486755
0.0476456
0.0460052
0.0463486
0.0391769
0.0406265
0.043335
0.0449753
0.0505447
0.0561523
0.0614929
0.0613403
0.0522614
0.0361633
0.0161743
0.00988007
0.00778198
0.00736237
0.0154114
0.0336838
0.04879
0.0610352
0.0650787
0.0655746
0.0627518
0.060463
0.0571442
0.0538635
0.0538254
0.0521088
0.0505066
0.0496292
0.0477219
0.0434113
0.0434113
0.0455093
0.0432587
0.0374603
0.0325012
0.0337601
0.0339127
0.0389099
0.0388718
0.0392914
0.0414276
0.0361252
0.0387192
0.0394058
0.0397873
0.0430679
0.0424194
0.0435638
0.045433
0.0431824
0.0446701
0.0503159
0.0490952
0.0466156
0.0446701
0.0479889
0.0488663
0.0490189
0.0481033
0.0441742
0.0368881
0.0305557
0.0356674
0.0350571
0.0350189
0.0445557
0.0430679
0.0434875
0.045166
0.0450897
0.0461197
0.051918
0.0543213
0.0518417
0.0491333
0.0524902
0.0522232
0.0540161
0.0536346
0.0510788
0.0403595
0.0257492
0.0273514
0.0344086
0.0317001
0.0296783
0.0354767
0.04673
0.0484467
0.0460434
0.0494766
0.0525665
0.0491333
0.0438309
0.0401688
0.0437546
0.0473404
0.0475693
0.0471878
0.0503922
0.0502777
0.0432587
0.0423431
0.0399017
0.041008
0.0400925
0.0424194
0.0424576
0.0406265
0.0400543
0.0429916
0.0443268
0.0445175
0.0426102
0.0424194
0.0428772
0.0435638
0.0411606
0.0367737
0.0410843
0.039444
0.0357437
0.0388336
0.0412369
0.0458145
0.0473785
0.0497055
0.0517654
0.049324
0.0502777
0.0507736
0.0509262
0.050354
0.049324
0.0478363
0.047493
0.045433
0.0444031
0.0399017
0.0374222
0.031929
0.0283051
0.0338745
0.0299072
0.0334549
0.0366974
0.0433731
0.0474548
0.0481033
0.0505447
0.0563812
0.0595474
0.0585938
0.0508499
0.0467682
0.0497055
0.0426102
0.0417709
0.0416946
0.0413895
0.0403976
0.0409317
0.0406647
0.0434875
0.0452423
0.0457001
0.0449371
0.0442886
0.0402832
0.0374603
0.0393677
0.0428009
0.0426865
0.0366592
0.0363922
0.0388718
0.0410843
0.0403214
0.0457001
0.0464249
0.044899
0.0431824
0.0429153
0.0441742
0.0391006
0.0437164
0.0457001
0.0422668
0.0408173
0.0426865
0.0455475
0.0499725
0.0492096
0.0486374
0.0474167
0.0499344
0.0468063
0.0476456
0.0482941
0.0459671
0.0428772
0.0418854
0.0408554
0.0416565
0.0463486
0.0521851
0.0520325
0.0546646
0.0482559
0.0428009
0.0427246
0.0407791
0.0373077
0.032692
0.0320435
0.0365448
0.037384
0.0403595
0.0432205
0.0439072
0.0405884
0.0352097
0.0363159
0.0392151
0.0455093
0.0466919
0.0468445
0.0488663
0.0495148
0.0498199
0.0484467
0.0461578
0.0443649
0.0412369
0.039978
0.0432587
0.0477982
0.0484085
0.0513077
0.0537872
0.0513077
0.0437164
0.0418854
0.039444
0.0391388
0.0391006
0.0414276
0.039711
0.0334167
0.0349426
0.040741
0.0429535
0.0444412
0.0402832
0.0387955
0.0421524
0.0476074
0.0525665
0.0539017
0.0537491
0.0535583
0.0475311
0.0426483
0.0403976
0.0411606
0.0407791
0.0420761
0.0385284
0.0403595
0.0399399
0.0446701
0.0468826
0.0450897
0.039711
0.0408554
0.0438309
0.0460434
0.0468826
0.0469971
0.0466919
0.0382614
0.0396347
0.0418091
0.0398636
0.043869
0.0453186
0.0447845
0.0470352
0.0474548
0.0452042
0.0478363
0.0502777
0.0492096
0.042305
0.0361252
0.0386047
0.042305
0.0455093
0.0501251
0.0503159
0.0479126
0.0434113
0.0384903
0.0349808
0.0350189
0.0359726
0.0363922
0.0449371
0.0475311
0.046196
0.0492477
0.0496292
0.0495529
0.0447845
0.0419998
0.04673
0.0489044
0.0457001
0.0458527
0.0424957
0.0411224
0.0394058
0.0390244
0.0382233
0.0376892
0.0410843
0.0417328
0.043335
0.0424957
0.0468063
0.0516891
0.051651
0.0545502
0.0485611
0.0438309
0.0400925
0.0387955
0.0419998
0.0427628
0.0465393
0.041275
0.0396729
0.0385666
0.0385284
0.0411606
0.0468826
0.0502396
0.0522995
0.0465393
0.0453186
0.0457382
0.0462341
0.039711
0.0399399
0.0450897
0.0441742
0.0447845
0.0404358
0.0387573
0.0364685
0.0353241
0.0377274
0.0453949
0.049324
0.0514221
0.0484467
0.0474167
0.0431442
0.0417328
0.0421524
0.0460434
0.0482941
0.0413895
0.0343704
0.0336456
0.0376129
0.0453568
0.0475693
0.0506973
0.0462341
0.0457382
0.0475311
0.0485229
0.0457764
0.051651
0.0527573
0.043602
0.0400162
0.0398636
0.0337982
0.0340652
0.0414276
0.0424957
0.0418091
0.0479889
0.0487518
0.0497055
0.0508118
0.0485992
0.0460815
0.0395203
0.0363159
0.0367355
0.0348282
0.0359726
0.0414658
0.0447464
0.0451279
0.0440598
0.0439835
0.0496674
0.057106
0.0565338
0.0469589
0.046196
0.0449371
0.0437164
0.0445175
0.0447464
0.0442505
0.0387192
0.0316238
0.0304794
0.0339508
0.0374603
0.0415039
0.0471115
0.0467682
0.0456238
0.0528336
0.0534058
0.0551987
0.0505066
0.0439453
0.0434494
0.0429535
0.0408554
0.0411606
0.0440216
0.0427628
0.0396729
0.044632
0.0440216
0.038414
0.0351715
0.0286865
0.0357056
0.0470734
0.0537872
0.0561905
0.0609207
0.0595856
0.0550461
0.0406647
0.0372696
0.0370026
0.03479
0.0284958
0.0290298
0.0287247
0.0306702
0.0415802
0.0528336
0.0569534
0.0580215
0.0558472
0.054245
0.0521469
0.0479126
0.044632
0.0426483
0.0366974
0.0315094
0.0335312
0.0379944
0.0435257
0.0450897
0.0440598
0.04776
0.0505447
0.0469971
0.0396347
0.0398636
0.0329208
0.0395966
0.0461578
0.0427246
0.0468063
0.046463
0.041275
0.0354385
0.0391006
0.0555038
0.0654984
0.0707245
0.0664139
0.057373
0.0436401
0.0396347
0.0344467
0.0300217
0.0278854
0.0349045
0.0349045
0.0381088
0.0369263
0.0372314
0.0352097
0.0344086
0.0376129
0.0447464
0.0471115
0.0463486
0.0411224
0.0386429
0.0420761
0.0456619
0.0518417
0.0492096
0.051918
0.0443268
0.0349426
0.0362396
0.0424194
0.0541687
0.0645828
0.0657654
0.0633621
0.0593948
0.0540543
0.0492859
0.039978
0.0310898
0.0304031
0.0355148
0.0370407
0.041008
0.0401306
0.0381851
0.0351334
0.0337219
0.0291443
0.0261307
0.030632
0.0354767
0.0411606
0.0444794
0.0575256
0.0587845
0.0641632
0.0683975
0.0673294
0.0572205
0.0427246
0.0408173
0.0397873
0.0382614
0.0405121
0.0394821
0.0366211
0.0341034
0.0325394
0.0345612
0.0358963
0.0409317
0.0408554
0.0441742
0.0453949
0.0447464
0.0471878
0.0494766
0.0528336
0.0496674
0.0406265
0.0435257
0.0455475
0.0426483
0.0419998
0.0450516
0.0449371
0.0380325
0.0300598
0.0339127
0.0402451
0.0507736
0.0636292
0.0718689
0.0696945
0.0643921
0.0523376
0.0421524
0.0368118
0.0341797
0.0320816
0.034523
0.0363541
0.0353241
0.032692
0.0335312
0.0339508
0.0344849
0.0339508
0.0374985
0.0361252
0.0424957
0.0448608
0.0465012
0.0475693
0.0483322
0.0478745
0.051384
0.0534821
0.0508881
0.0462341
0.0452423
0.0438309
0.0477219
0.0491333
0.0485992
0.0465775
0.0471497
0.044899
0.0395966
0.0403595
0.0421143
0.0423813
0.0462723
0.0468826
0.0455475
0.0491333
0.0473404
0.0443649
0.0392532
0.0339127
0.0365067
0.0372696
0.0401688
0.0408554
0.0461197
0.0427628
0.0399399
0.0403976
0.0428391
0.0406265
0.0460815
0.0456238
0.0476074
0.0444031
0.0419998
0.0464249
0.0476074
0.0486755
0.0452423
0.0426102
0.0436783
0.0471497
0.0488663
0.0491714
0.0492477
0.0449371
0.041275
0.0349045
0.0373077
0.0395584
0.0427246
0.0422668
0.0417709
0.043335
0.0467682
0.0469971
0.0477982
0.0489044
0.0438309
0.038147
0.0401688
0.0416183
0.0431442
0.0430298
0.0461578
0.0436401
0.0416565
0.0452042
0.0459671
0.0392532
0.0371552
0.0331497
0.0341415
0.0400162
0.0495911
0.0608063
0.0615311
0.0584793
0.0508118
0.0462723
0.0476837
0.0432587
0.0411224
0.041275
0.0408554
0.0402069
0.036087
0.0366974
0.0353241
0.0385666
0.0390244
0.0415421
0.0432968
0.0448227
0.0414658
0.0447083
0.0476837
0.04776
0.0453186
0.039978
0.0432968
0.0461578
0.04673
0.0478363
0.0463867
0.0458145
0.0419617
0.0411224
0.0378799
0.0378799
0.0452042
0.0497437
0.0504684
0.0485229
0.0463867
0.0445938
0.0458527
0.0473022
0.0401688
0.0407028
0.041008
0.0431061
0.0414276
0.042305
0.045929
0.0417328
0.0399017
0.0383377
0.0390244
0.0410843
0.042572
0.0427246
0.0435638
0.0431824
0.0450897
0.0442886
0.0466156
0.0485992
0.0473785
0.0401688
0.0422668
0.0382614
0.0365067
0.0424957
0.0462723
0.0494003
0.047493
0.0514221
0.0494385
0.0462723
0.0511551
0.0485229
0.0468826
0.0434494
0.0393295
0.0393295
0.0418472
0.0410843
0.0403214
0.0384521
0.0374222
0.0409698
0.0418854
0.0444794
0.046196
0.0437546
0.0427246
0.0421524
0.0435257
0.0410843
0.0439835
0.0432205
0.0460052
0.0462723
0.0444794
0.0452042
0.0471115
0.04776
0.0445557
0.0415039
0.0429916
0.0429153
0.0458527
0.0485229
0.0478745
0.0460052
0.0432968
0.0438309
0.0418091
0.0416183
0.0450516
0.0435638
0.0430298
0.0439072
0.0415039
0.0432968
0.0453949
0.0466537
0.0434113
0.038414
0.0434494
0.0429153
0.042572
0.0442886
0.044632
0.0428391
0.0399017
0.039711
0.042305
0.0419235
0.043602
0.0455856
0.0463867
0.0463104
0.0449371
0.0447464
0.0482178
0.0486374
0.0430298
0.0393295
0.0412369
0.0442505
0.046463
0.0458908
0.0434113
0.0434113
0.0403214
0.0413132
0.0421524
0.0444412
0.0449371
0.0439835
0.0461578
0.0421524
0.0439835
0.043869
0.0487137
0.0486755
0.0427246
0.0414276
0.0421524
0.0422668
0.0456238
0.0441742
0.0455856
0.0444794
0.0427246
0.0422668
0.0412369
0.0408936
0.0429535
0.0434113
0.0446701
0.0424576
